321
330
324
320
327
335
330
327
334
338
332
334
344
345
336
338
349
350
343
348
362
362
357
361
371
367
362
367
374
368
360
363
363
350
344
348
348
337
333
339
339
329
329
338
336
328
330
338
333
325
329
336
330
324
330
335
326
322
329
335
327
324
330
330
321
320
327
326
320
322
330
327
319
320
329
326
321
327
334
326
319
324
330
321
318
326
329
319
320
330
333
325
328
338
338
330
335
349
349
342
342
345
334
325
327
333
323
315
320
327
318
311
316
322
321
333
382
455
508
529
511
472
431
404
386
361
339
330
330
316
305
309
317
310
305
310
315
310
309
317
319
312
313
323
325
317
318
331
330
324
328
338
336
332
338
347
342
338
345
353
348
345
352
357
347
344
351
348
336
334
339
332
322
321
330
326
318
322
330
323
317
323
329
320
316
324
332
325
321
328
332
322
322
328
326
316
316
327
327
318
318
326
321
314
318
326
321
314
320
327
320
314
321
326
317
314
321
325
319
322
333
336
329
332
341
342
337
343
351
343
331
331
333
324
316
324
329
318
313
321
323
313
314
327
345
380
453
521
536
498
460
437
407
375
359
352
334
318
317
322
313
307
313
318
308
305
315
320
314
315
325
327
319
320
330
330
324
328
340
339
330
335
345
342
340
349
358
351
347
355
361
353
350
356
356
345
340
346
344
333
331
336
331
323
325
332
328
322
329
335
328
323
330
337
328
325
334
339
330
327
334
334
324
324
332
330
322
323
334
330
322
322
329
323
319
326
334
326
321
328
332
323
320
328
332
326
328
341
345
334
339
354
361
353
351
354
342
330
331
337
329
320
324
330
320
312
317
323
319
326
367
436
501
537
525
485
438
409
391
365
341
333
333
322
311
314
320
312
307
314
322
315
311
319
324
318
317
327
331
322
322
333
335
329
332
340
340
334
340
352
349
344
349
358
351
348
355
362
352
346
351
351
339
335
341
339
329
327
334
331
322
325
336
333
324
328
337
332
326
332
339
331
325
333
338
329
326
333
336
329
329
336
334
325
325
335
332
324
326
334
328
321
327
336
326
318
327
335
327
321
328
332
324
323
334
338
331
332
343
347
344
351
358
348
334
333
340
332
322
327
335
327
321
327
329
319
318
329
347
381
456
535
568
537
491
458
422
384
364
357
340
323
320
326
319
312
319
327
320
315
324
330
322
320
327
331
323
324
334
334
327
331
344
345
338
342
352
351
347
354
363
358
355
362
368
359
355
361
363
352
347
352
349
339
337
341
335
324
324
335
331
320
325
333
328
322
329
336
328
323
332
337
327
322
330
335
324
321
329
330
323
323
332
330
321
322
331
326
318
323
332
327
322
329
334
325
320
328
334
325
324
332
334
323
322
332
333
325
327
337
338
333
337
347
344
338
347
359
353
342
344
344
331
325
331
335
327
324
331
332
320
316
327
335
353
417
506
558
554
522
485
437
397
376
364
343
327
325
326
315
310
315
318
312
311
320
323
315
316
327
326
317
321
331
330
326
333
343
340
339
345
353
347
345
355
363
355
352
362
367
359
357
365
363
352
350
355
348
336
335
341
331
321
324
331
323
318
325
331
323
320
328
332
325
324
332
331
322
323
334
331
321
324
334
328
319
322
330
324
317
322
329
322
316
323
328
319
315
323
326
317
318
327
329
318
317
327
327
320
322
331
327
320
323
331
325
320
325
332
325
322
331
336
328
327
338
344
339
341
347
341
328
325
331
327
318
320
329
325
315
316
324
320
325
359
427
497
545
549
513
461
420
399
376
349
335
333
325
312
314
319
313
305
313
321
317
312
319
326
319
315
322
329
321
321
331
334
328
329
340
341
335
341
354
353
346
352
362
358
350
355
364
356
349
353
358
347
339
343
344
330
324
331
333
324
321
329
328
320
322
331
331
324
327
336
329
322
328
334
327
322
328
331
323
321
329
332
323
320
327
329
321
322
331
328
319
321
331
326
318
321
329
324
319
327
331
324
320
327
332
322
319
328
331
325
326
336
334
324
326
335
333
328
334
344
339
335
343
356
353
350
355
357
344
334
338
339
328
325
332
333
323
322
328
327
321
336
379
440
504
549
542
497
451
425
406
375
351
343
338
322
315
322
325
314
313
321
322
314
316
326
326
320
324
334
330
324
330
337
332
328
336
345
340
339
350
358
351
350
360
363
355
356
368
365
354
356
365
359
349
350
356
348
339
342
345
335
328
336
344
337
333
340
344
335
335
344
345
335
335
344
343
334
336
344
339
330
333
342
336
331
337
345
337
329
335
342
332
326
335
339
332
331
339
336
328
330
342
339
330
334
342
337
328
334
343
336
331
337
344
336
331
340
348
341
341
351
352
343
347
360
358
345
342
347
341
333
335
342
336
328
332
337
326
319
329
344
359
410
495
552
542
506
474
443
407
384
374
358
338
332
333
325
317
321
329
324
320
325
331
326
323
331
336
328
327
338
341
332
331
340
343
338
342
354
352
346
351
361
358
355
362
370
364
357
363
368
358
351
356
357
344
340
347
347
337
337
346
343
334
334
344
343
334
337
344
338
332
340
347
338
332
340
347
338
332
339
341
333
332
340
340
331
330
339
337
329
331
340
336
328
334
341
334
329
334
341
334
331
338
341
333
330
340
342
332
332
341
340
331
333
343
343
340
344
353
348
343
352
360
351
340
343
345
334
328
333
337
326
325
332
330
319
324
340
364
409
486
551
552
509
471
447
414
383
368
360
341
325
327
328
316
311
320
323
316
317
327
327
319
319
328
328
323
328
338
335
330
334
343
337
333
341
350
344
342
351
357
351
350
358
360
351
351
358
355
345
344
350
344
333
333
338
329
321
327
334
325
320
326
333
325
322
331
334
326
327
337
335
325
326
335
332
324
326
334
329
320
324
333
328
322
326
332
323
318
324
328
319
316
323
326
319
320
328
328
319
322
332
329
322
325
333
327
319
323
331
325
320
327
333
324
320
329
336
330
328
339
343
336
342
351
348
336
333
339
333
324
327
333
326
320
325
328
318
315
330
353
391
466
543
569
532
484
451
417
381
359
353
339
321
317
322
315
307
311
318
312
307
315
323
316
313
322
327
320
319
330
333
325
327
338
337
331
335
347
349
343
350
362
358
351
357
367
361
355
361
365
352
345
350
349
337
332
337
336
326
324
332
328
320
323
332
329
321
325
334
329
323
327
334
326
322
329
335
326
324
332
334
324
322
330
328
319
321
330
326
320
322
330
325
320
326
334
327
321
327
333
323
319
327
332
323
321
331
334
324
326
336
335
326
328
336
332
325
327
336
330
325
333
343
338
332
341
351
348
347
351
348
334
329
337
336
325
326
335
333
323
323
330
327
329
357
423
497
553
566
538
481
436
412
389
359
341
339
333
318
316
324
323
315
317
324
321
314
321
330
326
320
326
335
330
328
335
343
335
334
346
353
347
348
360
365
359
359
369
368
358
362
373
370
360
363
370
359
349
350
353
341
331
336
339
328
324
333
335
325
325
334
334
326
328
336
334
325
327
336
331
324
328
335
328
322
328
332
322
318
327
332
323
321
328
329
321
322
330
328
320
323
333
330
322
325
335
328
322
329
335
327
325
333
338
328
326
337
339
328
327
335
335
325
327
336
336
328
332
342
339
334
340
352
349
345
348
351
338
330
335
338
330
328
336
337
325
322
331
334
339
376
456
528
558
547
512
463
420
395
380
354
336
333
332
318
312
319
321
312
312
322
322
315
319
328
327
319
323
333
330
324
329
339
335
334
341
349
343
341
352
361
355
355
364
369
360
360
370
368
357
358
364
357
345
345
351
341
329
331
338
331
322
328
334
326
324
331
334
325
322
331
334
325
325
335
334
325
326
335
331
325
328
334
327
319
325
331
323
320
327
331
323
319
327
331
321
319
327
327
320
322
331
329
320
322
330
325
320
324
332
325
321
331
338
328
324
330
335
326
324
334
335
325
327
339
340
333
336
348
348
341
346
356
347
335
336
342
332
323
329
336
329
322
325
325
320
325
353
402
470
534
561
531
479
442
420
389
360
347
344
330
318
321
327
317
312
320
326
319
315
322
325
319
321
334
332
323
327
339
337
333
340
350
346
340
348
358
354
351
360
368
361
358
367
372
363
361
370
370
357
353
357
351
338
335
342
337
329
332
339
331
323
330
338
331
325
333
338
330
327
336
338
327
325
335
336
327
328
337
334
325
325
334
329
320
323
333
327
320
327
335
327
323
331
334
325
322
332
333
323
324
333
332
323
324
332
331
324
329
338
333
326
330
338
331
325
332
338
328
325
336
341
333
333
345
348
343
347
356
350
336
335
341
334
325
330
338
331
323
325
329
322
321
341
380
435
502
545
531
484
448
429
403
370
351
346
335
321
321
325
318
311
317
326
320
313
320
326
318
315
324
330
322
322
331
335
327
331
341
341
334
338
348
347
341
348
357
352
348
355
362
356
352
359
362
350
344
350
347
335
333
340
338
329
329
335
332
324
328
338
334
327
331
340
331
324
330
338
328
325
332
336
327
325
333
336
326
325
334
333
321
322
331
327
317
320
331
328
320
325
333
325
319
327
333
325
322
330
334
325
325
335
336
328
329
339
339
333
336
346
344
341
346
353
344
333
333
336
326
322
330
335
325
322
327
326
319
324
345
375
428
501
548
530
487
454
433
400
369
355
350
332
319
320
322
313
310
318
322
314
314
325
326
316
319
328
326
318
322
334
330
325
333
343
339
335
341
349
344
343
354
359
350
350
360
364
355
354
362
360
349
349
354
347
337
338
343
336
328
332
340
332
324
329
337
330
327
337
342
333
332
340
340
330
330
338
335
325
327
337
334
324
327
335
328
320
326
333
325
321
328
334
325
322
330
332
322
322
332
332
323
324
335
333
324
327
337
334
329
336
346
342
340
350
360
349
339
342
342
330
326
334
334
324
323
331
328
318
322
336
342
364
429
510
549
534
501
468
428
393
377
363
341
328
330
328
316
312
322
323
314
315
324
325
318
322
331
329
323
329
337
331
326
333
342
337
335
345
351
342
341
352
356
349
350
361
361
353
356
365
360
350
350
355
347
338
340
346
335
328
334
342
332
326
334
338
329
327
335
336
327
327
337
336
328
330
338
335
326
330
339
333
326
331
336
327
322
330
335
325
323
333
335
326
325
333
333
323
325
335
334
324
326
335
330
323
329
338
333
332
339
347
340
337
350
358
352
349
353
349
336
333
340
335
324
326
335
330
322
324
330
325
324
351
416
488
544
564
535
479
434
410
387
359
343
340
332
317
315
323
318
310
314
325
320
313
319
328
322
317
325
333
327
324
332
338
332
333
343
347
340
342
354
355
350
354
365
362
354
359
368
363
353
356
360
348
339
344
347
335
329
335
335
327
326
335
335
324
324
334
333
325
327
337
333
326
329
337
328
321
327
334
326
323
331
333
324
323
332
333
323
324
332
332
323
323
331
329
322
326
335
329
321
327
334
324
319
326
333
324
321
331
334
327
328
338
341
334
336
348
349
341
343
348
340
329
331
336
327
320
328
333
324
317
321
328
325
341
399
478
537
559
542
494
441
407
389
366
341
331
331
320
311
317
324
317
311
319
325
316
314
323
328
321
322
330
329
322
326
338
338
331
336
347
345
341
347
358
355
351
357
366
359
356
365
369
358
353
358
356
344
339
342
339
327
327
336
332
323
325
333
327
320
326
334
325
320
330
337
329
325
332
335
326
323
333
332
322
324
332
330
320
322
332
327
317
322
331
325
319
323
330
323
320
329
333
325
323
331
332
323
323
334
332
321
323
333
332
324
325
334
331
326
334
344
339
335
344
353
348
344
349
349
337
332
337
336
327
328
336
335
324
323
330
328
330
364
440
511
548
545
514
463
418
395
377
350
333
331
327
313
311
319
319
310
312
322
318
310
315
327
323
317
322
332
327
321
329
337
331
328
339
346
340
342
353
357
352
353
363
366
359
360
368
365
355
356
362
351
339
341
344
331
325
331
334
324
322
328
330
322
321
332
333
326
326
336
332
322
324
333
330
323
326
335
327
320
325
331
323
320
327
332
323
322
330
332
322
321
330
330
322
323
332
328
320
323
332
326
320
326
334
327
321
331
337
329
325
333
337
327
326
336
335
325
327
339
338
330
335
347
344
340
349
360
349
336
339
342
332
327
336
340
330
327
335
334
325
326
346
373
425
499
557
549
502
465
441
408
377
363
357
338
323
325
329
319
315
323
328
319
318
327
327
318
320
332
332
324
327
338
338
331
338
349
346
341
350
359
353
352
361
369
361
358
366
368
360
360
370
368
357
354
360
353
342
341
347
341
332
335
341
333
327
335
341
333
331
338
341
333
333
340
339
328
329
338
337
328
331
341
336
328
331
339
332
326
332
336
326
321
329
335
327
325
335
337
327
330
339
336
325
325
336
335
327
331
342
335
328
333
342
334
329
336
343
334
330
339
344
338
340
352
354
346
346
352
345
331
331
339
334
325
327
334
327
320
324
335
331
342
390
467
522
544
529
492
447
418
401
378
351
338
337
328
316
317
326
321
313
319
326
319
315
324
333
325
323
331
336
327
325
335
337
329
331
344
344
337
340
353
352
345
349
361
356
347
353
361
353
347
350
353
341
336
340
339
329
327
334
332
321
321
332
332
323
327
335
331
325
329
337
331
325
331
336
327
322
331
335
326
325
333
334
326
326
334
332
322
324
332
329
322
326
334
329
323
330
337
326
320
330
336
328
324
331
332
323
323
333
334
327
330
341
341
336
344
355
348
333
333
338
328
319
324
330
321
317
325
328
319
318
334
360
403
477
538
539
496
457
434
404
370
353
348
334
318
317
321
313
307
314
321
312
310
319
322
312
312
324
325
317
320
333
333
326
329
339
337
331
338
348
345
342
349
359
351
348
356
360
350
349
354
354
344
343
350
347
334
334
341
336
326
329
337
330
324
330
337
330
325
331
337
328
325
332
336
328
328
336
336
325
325
335
334
325
327
335
330
322
327
336
329
322
326
332
324
321
328
331
322
319
329
331
320
319
330
332
323
326
335
336
329
333
343
341
338
349
359
352
344
346
348
335
329
335
336
326
324
332
332
320
318
329
330
333
373
455
526
558
545
509
461
418
395
380
355
337
335
332
317
312
321
323
312
311
321
323
317
320
328
325
317
322
333
330
325
331
341
337
335
343
351
346
346
356
362
353
353
364
364
354
356
365
363
353
354
361
353
340
341
346
337
328
332
337
329
325
334
338
329
326
336
336
327
327
338
337
328
330
338
334
327
331
339
333
324
328
339
332
325
330
337
328
325
334
338
325
323
335
336
324
322
331
332
323
326
336
333
323
327
336
331
323
329
337
333
332
341
347
340
340
353
359
349
343
347
344
333
333
340
336
327
328
336
330
321
326
337
341
373
452
534
568
550
515
473
426
392
377
361
338
329
331
324
313
315
325
321
314
321
331
325
318
326
336
328
325
334
340
330
329
341
346
339
340
352
356
350
354
365
365
360
365
375
371
363
369
374
363
355
360
365
352
344
347
348
337
333
341
340
329
328
337
337
329
331
341
337
329
333
342
338
330
334
340
331
327
334
338
329
326
335
336
325
325
335
335
325
327
339
337
329
332
341
335
328
333
341
334
327
334
340
332
329
336
339
329
329
341
343
335
337
346
346
338
343
355
355
349
351
356
346
338
341
348
336
330
337
343
334
327
332
334
329
342
392
467
529
562
551
506
455
422
405
379
354
344
343
332
322
326
330
321
316
324
329
320
319
330
332
324
326
337
337
330
335
346
343
337
343
353
350
346
355
365
359
357
367
374
365
362
371
375
365
362
368
365
352
346
353
349
338
337
345
338
330
334
341
333
327
335
343
334
329
337
341
331
329
337
338
331
332
340
340
329
330
337
334
326
329
336
330
324
331
340
332
326
333
338
329
326
336
339
329
327
335
336
327
328
338
337
328
331
341
337
328
333
343
337
330
338
343
334
331
340
345
337
335
346
351
343
345
359
358
345
341
345
339
329
332
340
333
326
330
335
324
320
333
355
390
461
538
568
534
490
458
427
390
369
362
348
330
325
330
323
314
318
326
321
316
322
329
323
322
333
338
330
329
339
341
332
333
346
347
341
345
356
356
350
357
369
364
358
364
372
364
357
363
368
357
351
355
357
345
339
344
342
331
331
341
341
330
330
339
334
326
331
343
338
330
335
342
333
327
334
340
330
326
334
336
329
329
339
338
330
329
339
334
322
325
333
329
322
328
337
330
324
330
336
327
323
331
336
330
327
335
337
329
329
339
339
331
333
341
337
329
331
338
332
328
336
345
340
337
348
354
349
346
352
350
337
334
340
337
326
327
335
331
321
323
334
333
340
381
458
519
545
531
498
453
420
404
382
354
338
337
333
320
319
325
321
312
314
325
323
317
320
329
324
320
327
334
327
325
333
338
331
330
341
346
338
340
350
351
345
348
359
358
350
352
361
356
346
351
356
346
339
342
345
333
326
331
334
322
319
327
329
320
321
330
329
322
325
335
331
323
327
335
329
323
328
333
324
318
325
332
322
320
330
331
321
320
330
330
320
321
329
326
319
321
330
327
320
326
334
329
321
327
334
326
321
329
333
324
323
334
338
331
333
345
346
339
344
354
346
333
331
336
329
320
326
334
326
318
324
327
319
319
338
373
430
499
547
530
479
443
424
396
363
348
345
330
314
314
322
314
306
312
320
313
310
319
323
314
314
325
327
318
319
330
330
322
324
337
337
331
338
347
343
339
348
358
352
348
355
361
350
346
353
356
344
338
344
342
330
327
333
330
322
323
331
325
317
323
333
325
319
325
332
323
319
328
334
325
322
329
330
320
319
328
327
317
319
328
325
316
319
326
321
317
323
331
324
319
325
332
321
317
326
329
322
322
329
328
319
320
330
328
321
325
334
330
324
332
347
345
339
341
341
328
320
325
327
316
315
324
327
314
310
319
321
321
352
427
502
547
544
512
461
418
393
376
350
332
328
327
311
306
313
316
307
306
316
317
307
309
323
323
312
314
326
322
315
320
332
329
324
334
343
336
336
345
354
347
348
358
362
354
351
360
359
347
347
355
349
336
334
339
331
322
326
331
323
318
